192.414993	2.372103	0.239741
194.001999	2.37983	0.233074
195.589081	2.38263	0.216914
197.176178	2.378561	0.196604
198.763351	2.368071	0.176709
200.350571	2.354192	0.160287
201.937836	2.339767	0.146888
203.525162	2.32582	0.135518
205.112518	2.312664	0.125302
206.699921	2.300013	0.115549
208.287399	2.287355	0.106276
209.874908	2.27458	0.097753
211.462448	2.261766	0.090223
213.050049	2.249166	0.083904
214.637695	2.237275	0.078773
216.225388	2.226388	0.074438
217.813141	2.216551	0.070504
219.400925	2.207666	0.066605
220.98877	2.199462	0.062413
222.57663	2.191468	0.057875
224.164581	2.183422	0.053211
225.752533	2.175232	0.048639
227.340546	2.166897	0.044359
228.928619	2.158512	0.040554
230.516693	2.150303	0.037304
232.104858	2.142433	0.034499
233.693039	2.13496	0.032018
235.281281	2.127894	0.029747
236.869537	2.121205	0.027579
238.457855	2.114812	0.025423
240.046219	2.108593	0.023268
241.634598	2.102485	0.021165
243.223053	2.096461	0.019158
244.811523	2.090514	0.017291
246.400055	2.084658	0.015604
247.988602	2.078929	0.014131
249.577194	2.073393	0.012864
251.165848	2.06808	0.01176
252.754517	2.063	0.010776
254.343231	2.058149	0.009874
255.932007	2.053514	0.009016
257.520813	2.04907	0.008166
259.10965	2.044773	0.007302
260.698517	2.040578	0.006432
262.287415	2.03646	0.005576
263.876373	2.032408	0.004753
265.465363	2.028415	0.003979
267.054382	2.024482	0.003271
268.643433	2.020613	0.002643
270.232513	2.016824	0.002107
271.821655	2.013133	0.001659
273.410828	2.009549	0.00129
275.000031	2.006076	0.000988
276.589264	2.002715	0.000746
278.178528	1.999468	0.000553
279.767822	1.996332	0.000402
281.357147	1.993304	0.000284
282.946533	1.990379	0.000194
284.53595	1.987552	0.000125
286.125366	1.984819	0.000076
287.714844	1.982176	0.000041
289.304352	1.97962	0.00002
290.89386	1.977146	0.000007
292.483459	1.974751	0.000002
294.073029	1.972432	0
295.662659	1.970183	0
297.252319	1.967999	0
298.84201	1.965877	0
300.431732	1.963814	0
302.021484	1.961805	0
303.611267	1.959849	0
305.20105	1.957943	0
306.790894	1.956084	0
308.380768	1.954272	0
309.970642	1.952504	0
311.560577	1.950778	0
313.150543	1.949092	0
314.740509	1.947446	0
316.330505	1.945837	0
317.920532	1.944264	0
319.51059	1.942726	0
321.100677	1.941221	0
322.690796	1.939749	0
324.280914	1.938309	0
325.871063	1.936898	0
327.461243	1.935517	0
329.051453	1.934164	0
330.641693	1.932839	0
332.231964	1.931539	0
333.822235	1.930266	0
335.412537	1.929017	0
337.002869	1.927792	0
338.593231	1.926591	0
340.183594	1.925412	0
341.773987	1.924255	0
343.36441	1.923119	0
344.954865	1.922003	0
346.545319	1.920908	0
348.135803	1.919832	0
349.726288	1.918775	0
351.316833	1.917736	0
352.907349	1.916714	0
354.497894	1.91571	0
356.088501	1.914722	0
357.679108	1.913751	0
359.269714	1.912795	0
360.860352	1.911854	0
362.450989	1.910928	0
364.041687	1.910017	0
365.632385	1.909119	0
367.223083	1.908234	0
368.813782	1.907362	0
370.404541	1.906503	0
371.9953	1.905655	0.000001
373.58606	1.904819	0.000002
375.176849	1.903995	0.000004
376.767639	1.903181	0.000007
378.358459	1.902378	0.00001
379.94931	1.901585	0.000015
381.540161	1.900802	0.00002
383.131042	1.900029	0.000027
384.721893	1.899266	0.000035
386.312805	1.898512	0.000044
387.903687	1.897767	0.000055
389.494598	1.897031	0.000067
391.08551	1.896303	0.000081
392.676453	1.895583	0.000097
394.267426	1.894871	0.000115
395.858398	1.894166	0.000135
397.449371	1.893469	0.000159
399.040344	1.89278	0.000186
400.631348	1.892098	0.000216
402.222351	1.891423	0.000251
403.813385	1.890757	0.000289
405.404388	1.890098	0.000333
406.995422	1.889447	0.00038
408.586487	1.888805	0.000433
410.177551	1.888171	0.000491
411.768616	1.887547	0.000554
413.35968	1.886931	0.000622
414.950745	1.886326	0.000697
416.54184	1.885732	0.000777
418.132904	1.885149	0.000863
419.72403	1.884579	0.000953
421.315125	1.884023	0.001047
422.90625	1.88348	0.001145
424.497375	1.882951	0.001243
426.088531	1.882436	0.001343
427.679626	1.881934	0.001443
429.270813	1.881446	0.001542
430.861908	1.880971	0.00164
432.453064	1.880508	0.001735
434.04425	1.880058	0.001827
435.635345	1.879619	0.001916
437.226501	1.879192	0.002
438.817688	1.878775	0.00208
440.408844	1.878369	0.002153
442.000061	1.877972	0.002221
443.591217	1.877583	0.002282
445.182373	1.877201	0.002336
446.773529	1.876826	0.002382
448.364685	1.876455	0.00242
449.955902	1.876088	0.002451
451.547058	1.875723	0.002475
453.138245	1.875358	0.002494
454.729431	1.874995	0.002508
456.320618	1.874632	0.002517
457.911774	1.874269	0.002524
459.502991	1.873905	0.002527
461.094147	1.873541	0.002528
462.685303	1.873176	0.002528
464.276459	1.872811	0.002527
465.867676	1.872445	0.002525
467.458832	1.872078	0.002524
469.049988	1.871711	0.002524
470.641174	1.871343	0.002525
472.23233	1.870976	0.002527
473.823486	1.870608	0.002532
475.414642	1.87024	0.00254
477.005768	1.869873	0.002551
478.596924	1.869507	0.002566
480.18808	1.869143	0.002584
481.779205	1.86878	0.002607
483.3703	1.86842	0.002635
484.961487	1.868065	0.002667
486.552582	1.867714	0.002703
488.143707	1.867367	0.002743
489.734802	1.867026	0.002786
491.325867	1.866691	0.002832
492.916992	1.866361	0.00288
494.508057	1.866037	0.002929
496.099182	1.865719	0.00298
497.690247	1.865407	0.003033
499.281311	1.865101	0.003086
500.872314	1.8648	0.003139
502.463379	1.864505	0.003192
504.054382	1.864216	0.003245
505.645416	1.863932	0.003298
507.23642	1.863654	0.00335
508.827454	1.86338	0.0034
510.418457	1.863112	0.003449
512.009399	1.862849	0.003496
513.600403	1.86259	0.003541
515.191345	1.862335	0.003584
516.782288	1.862085	0.003625
518.37323	1.861838	0.003663
519.964172	1.861594	0.003698
521.555054	1.861353	0.003729
523.145935	1.861115	0.003758
524.736877	1.860878	0.003783
526.327759	1.860642	0.003804
527.918579	1.860407	0.003823
529.509399	1.860171	0.00384
531.10022	1.859935	0.003854
532.69104	1.859699	0.003867
534.28186	1.859461	0.003879
535.872681	1.859223	0.00389
537.463379	1.858984	0.003901
539.054138	1.858744	0.003911
540.644897	1.858503	0.003922
542.235596	1.858261	0.003934
543.826294	1.858018	0.003947
545.416992	1.857775	0.003961
547.00769	1.85753	0.003977
548.598267	1.857285	0.003994
550.188904	1.85704	0.004014
551.779541	1.856794	0.004036
553.370117	1.856549	0.004061
554.960693	1.856303	0.00409
556.55127	1.856057	0.004121
558.141785	1.855812	0.004156
559.7323	1.855568	0.004194
561.322815	1.855324	0.004237
562.913269	1.855082	0.004283
564.503723	1.854842	0.004334
566.094116	1.854604	0.004389
567.68457	1.854367	0.00445
569.274963	1.854134	0.004515
570.865295	1.853904	0.004585
572.455688	1.853678	0.00466
574.045959	1.853457	0.004741
575.636292	1.853242	0.004826
577.226501	1.853033	0.004916
578.816772	1.852831	0.00501
580.406982	1.852636	0.005107
581.997192	1.852449	0.005207
583.587341	1.852269	0.005308
585.177551	1.852098	0.005411
586.767639	1.851934	0.005515
588.357788	1.851778	0.005619
589.947815	1.85163	0.005723
591.537842	1.851491	0.005827
593.127869	1.851359	0.005929
594.717896	1.851234	0.00603
596.307861	1.851118	0.006129
597.897766	1.851009	0.006226
599.487671	1.850908	0.006319
601.077576	1.850813	0.00641
602.667419	1.850726	0.006497
604.257202	1.850646	0.00658
605.847046	1.850572	0.006658
607.436829	1.850505	0.006732
609.02655	1.850443	0.006801
610.616272	1.850388	0.006864
612.205933	1.850338	0.006922
613.795532	1.850294	0.006974
615.385193	1.850254	0.00702
616.974731	1.850219	0.007059
618.564331	1.850188	0.007091
620.15387	1.850162	0.007116
621.743347	1.850138	0.007134
623.332825	1.850118	0.007145
624.922241	1.850101	0.007147
626.511597	1.850086	0.007142
628.100952	1.850072	0.007128
629.690308	1.85006	0.007106
631.279602	1.850048	0.007075
632.868835	1.850036	0.007036
634.458069	1.850023	0.006987
636.047241	1.850008	0.006931
637.636353	1.849991	0.006866
639.225464	1.84997	0.006794
640.814575	1.849946	0.006714
642.403625	1.849918	0.006628
643.992615	1.849886	0.006536
645.581604	1.84985	0.006439
647.170532	1.849809	0.006335
648.759399	1.849763	0.006227
650.348267	1.849713	0.006115
651.937134	1.849657	0.005998
653.525879	1.849596	0.005877
655.114624	1.84953	0.005753
656.703308	1.849459	0.005626
658.291992	1.849383	0.005495
659.880615	1.849301	0.005363
661.469177	1.849213	0.005228
663.057739	1.84912	0.005092
664.64624	1.849022	0.004953
666.234741	1.848919	0.004814
667.82312	1.84881	0.004674
669.411499	1.848696	0.004533
670.999878	1.848576	0.004391
672.588135	1.848452	0.00425
674.176392	1.848322	0.004108
675.764587	1.848187	0.003967
677.352783	1.848047	0.003826
678.940918	1.847903	0.003686
680.528992	1.847753	0.003548
682.117065	1.847599	0.00341
683.705017	1.84744	0.003274
685.292969	1.847277	0.003139
686.88092	1.84711	0.003007
688.46875	1.846938	0.002876
690.056519	1.846762	0.002748
691.644348	1.846583	0.002623
693.232056	1.846399	0.002499
694.819702	1.846212	0.002379
696.407349	1.846022	0.002262
697.994934	1.845828	0.002148
699.582458	1.845632	0.002037
701.169983	1.845432	0.001929
702.757446	1.84523	0.001825
704.344849	1.845026	0.001725
705.932129	1.844819	0.001629
707.519409	1.844611	0.001537
709.106689	1.844402	0.001448
710.693909	1.844192	0.001364
712.281067	1.843981	0.001283
713.868103	1.843769	0.001206
715.4552	1.843557	0.001132
717.042175	1.843345	0.001062
718.629089	1.843132	0.000995
720.216003	1.84292	0.000931
721.802856	1.842708	0.00087
723.389648	1.842496	0.000812
724.976379	1.842285	0.000757
726.56311	1.842074	0.000705
728.149719	1.841863	0.000655
729.736267	1.841653	0.000608
731.322815	1.841444	0.000564
732.909302	1.841235	0.000522
734.495728	1.841028	0.000482
736.082092	1.840821	0.000444
737.668335	1.840615	0.000409
739.254639	1.84041	0.000375
740.84082	1.840205	0.000344
742.426941	1.840002	0.000315
744.013062	1.8398	0.000287
745.59906	1.839599	0.000261
747.185059	1.839399	0.000237
748.770996	1.8392	0.000215
750.356812	1.839002	0.000194
751.942688	1.838805	0.000174
753.528442	1.83861	0.000156
755.114136	1.838416	0.000139
756.699707	1.838222	0.000124
758.285278	1.83803	0.00011
759.870789	1.83784	0.000097
761.456238	1.83765	0.000085
763.041626	1.837462	0.000074
764.627014	1.837274	0.000064
766.21228	1.837088	0.000056
767.797485	1.836904	0.000048
769.382629	1.83672	0.00004
770.967712	1.836537	0.000034
772.552734	1.836356	0.000028
774.137695	1.836176	0.000023
775.722595	1.835997	0.000019
777.307495	1.835819	0.000015
778.892212	1.835643	0.000012
780.476929	1.835467	0.000009
782.061646	1.835293	0.000007
783.646179	1.835119	0.000005
785.230713	1.834947	0.000004
786.815186	1.834776	0.000003
788.399597	1.834606	0.000002
789.983948	1.834436	0.000001
791.568237	1.834268	0.000001
793.152405	1.834101	0
794.736511	1.833935	0
796.320618	1.833769	0
797.904663	1.833605	0
799.488586	1.833441	0
801.072388	1.833278	0
802.65625	1.833115	0
804.23999	1.832954	0
805.823608	1.832793	0
807.407227	1.832633	0
808.990784	1.832473	0
810.574219	1.832314	0
812.157593	1.832155	0
813.740967	1.831997	0
815.324219	1.831839	0
816.907349	1.831682	0
818.49054	1.831526	0
820.073547	1.831369	0
821.656555	1.831214	0
823.239441	1.831059	0
824.822266	1.830904	0
826.404968	1.830749	0
827.987671	1.830595	0
829.570313	1.830442	0
831.152832	1.830288	0
832.735352	1.830136	0
834.317688	1.829983	0
835.900024	1.829831	0
837.4823	1.829679	0
839.064453	1.829528	0
840.646606	1.829376	0
842.228638	1.829226	0
843.810547	1.829075	0
845.392395	1.828925	0
846.974243	1.828775	0
848.555847	1.828625	0
850.137512	1.828476	0
851.719116	1.828327	0
853.300598	1.828178	0
854.882019	1.828029	0
856.463379	1.827881	0
858.044617	1.827733	0
859.625793	1.827585	0
861.206848	1.827438	0
862.787903	1.82729	0
864.368835	1.827143	0
865.949707	1.826996	0
867.530457	1.826849	0
869.111145	1.826703	0
870.691772	1.826556	0
872.272339	1.82641	0
873.852722	1.826265	0
875.433228	1.826119	0
877.013489	1.825973	0
878.593628	1.825828	0
880.173828	1.825683	0
881.753784	1.825538	0
883.333801	1.825393	0
884.913696	1.825248	0
886.493469	1.825103	0
888.073242	1.824959	0
889.652832	1.824815	0
891.2323	1.824671	0
892.811829	1.824527	0
894.391235	1.824383	0
895.97052	1.824239	0
897.549683	1.824096	0
899.128784	1.823952	0
900.707825	1.823809	0
902.286804	1.823666	0
903.865601	1.823523	0
905.444458	1.82338	0
907.023071	1.823237	0
908.601685	1.823094	0
910.180176	1.822952	0
911.758606	1.822809	0
913.336914	1.822667	0
914.915161	1.822525	0
916.493347	1.822383	0
918.071411	1.822241	0
919.649292	1.822099	0
921.227234	1.821957	0
922.804993	1.821815	0
924.38269	1.821673	0
925.960327	1.821532	0
927.537781	1.82139	0
929.115234	1.821248	0
930.692566	1.821107	0
932.269836	1.820966	0
933.846985	1.820824	0
935.424011	1.820683	0
937.000977	1.820542	0
938.57782	1.820401	0
940.154602	1.82026	0
941.731262	1.820119	0
943.307922	1.819978	0
944.884399	1.819837	0
946.460754	1.819696	0
948.036987	1.819556	0
949.613281	1.819415	0
951.189331	1.819274	0
952.76532	1.819134	0
954.341309	1.818993	0
955.917114	1.818853	0
957.492798	1.818712	0
959.068359	1.818572	0
960.643921	1.818431	0
962.21936	1.818291	0
963.794617	1.818151	0
965.369934	1.81801	0
966.945007	1.81787	0
968.52002	1.81773	0
970.09491	1.817589	0
971.6698	1.817449	0
973.244507	1.817309	0
974.819153	1.817169	0
976.393677	1.817029	0
977.968079	1.816889	0
979.542358	1.816748	0
981.116577	1.816608	0
982.690735	1.816468	0
984.264771	1.816328	0
985.838684	1.816188	0
987.412415	1.816048	0
988.986145	1.815908	0
990.559753	1.815768	0
992.133179	1.815628	0
993.706665	1.815488	0
995.279907	1.815348	0
996.853027	1.815208	0
998.426147	1.815068	0
999.999146	1.814928	0
1012.878723	1.81378	0
1016.250183	1.81348	0
1019.622375	1.813179	0
1022.995239	1.812878	0
1026.368652	1.812577	0
1029.74292	1.812275	0
1033.117676	1.811973	0
1036.493286	1.811672	0
1039.869385	1.81137	0
1043.246338	1.811067	0
1046.623779	1.810764	0
1050.001953	1.810462	0
1053.380859	1.810158	0
1056.760498	1.809855	0
1060.140625	1.809551	0
1063.521484	1.809247	0
1066.903076	1.808942	0
1070.2854	1.808638	0
1073.668213	1.808332	0
1077.051758	1.808027	0
1080.436035	1.807721	0
1083.820923	1.807415	0
1087.206543	1.807108	0
1090.592773	1.806801	0
1093.979736	1.806494	0
1097.36731	1.806186	0
1100.755615	1.805878	0
1104.144531	1.805569	0
1107.53418	1.80526	0
1110.924438	1.804951	0
1114.31543	1.804641	0
1117.707031	1.804331	0
1121.099365	1.80402	0
1124.49231	1.803709	0
1127.885986	1.803397	0
1131.280273	1.803085	0
1134.675293	1.802772	0
1138.070923	1.802459	0
1141.467285	1.802145	0
1144.864258	1.801831	0
1148.261963	1.801517	0
1151.660278	1.801201	0
1155.059326	1.800886	0
1158.458984	1.80057	0
1161.859253	1.800253	0
1165.260376	1.799936	0
1168.661987	1.799618	0
1172.064453	1.7993	0
1175.467529	1.798981	0
1178.871216	1.798661	0
1182.275635	1.798342	0
1185.680664	1.798021	0
1189.086304	1.7977	0
1192.492798	1.797378	0
1195.89978	1.797056	0
1199.307617	1.796733	0
1202.716064	1.79641	0
1206.125122	1.796086	0
1209.534912	1.795761	0
1212.945313	1.795436	0
1216.356445	1.79511	0
1219.768188	1.794783	0
1223.180664	1.794456	0
1226.59375	1.794129	0
1230.007568	1.7938	0
1233.421997	1.793471	0
1236.837158	1.793142	0
1240.25293	1.792812	0
1243.669434	1.792481	0
1247.086548	1.792149	0
1250.504395	1.791817	0
1253.922852	1.791484	0
1257.342041	1.791151	0
1260.761841	1.790817	0
1264.182373	1.790482	0
1267.603516	1.790146	0
1271.025391	1.78981	0
1274.447998	1.789473	0
1277.871094	1.789136	0
1281.294922	1.788798	0
1284.719482	1.788459	0
1288.144775	1.788119	0
1291.570557	1.787779	0
1294.997192	1.787438	0
1298.424316	1.787096	0
1301.852295	1.786754	0
1305.280762	1.786411	0
1308.710083	1.786067	0
1312.139893	1.785722	0
1315.570557	1.785377	0
1319.001709	1.785031	0
1322.433716	1.784684	0
1325.866333	1.784337	0
1329.299561	1.783988	0
1332.733521	1.78364	0
1336.168091	1.78329	0
1339.603271	1.782939	0
1343.039307	1.782588	0
1346.47583	1.782236	0
1349.913208	1.781883	0
1353.351196	1.78153	0
1356.789795	1.781176	0
1360.229126	1.780821	0
1363.669189	1.780465	0
1367.109741	1.780108	0
1370.551025	1.779751	0
1373.993042	1.779393	0
1377.435791	1.779034	0
1380.87915	1.778674	0
1384.322998	1.778314	0
1387.767822	1.777953	0
1391.213135	1.777591	0
1394.65918	1.777228	0
1398.105835	1.776864	0
1401.553223	1.7765	0
1405.001221	1.776135	0
1408.449951	1.775769	0
1411.899292	1.775402	0
1415.349365	1.775034	0
1418.800049	1.774666	0
1422.251465	1.774296	0
1425.703491	1.773926	0
1429.15625	1.773555	0
1432.609619	1.773184	0
1436.063721	1.772811	0
1439.518555	1.772438	0
1442.973877	1.772063	0
1446.430054	1.771688	0
1449.886841	1.771312	0
1453.344238	1.770936	0
1456.802368	1.770558	0
1460.261108	1.77018	0
1463.720581	1.7698	0
1467.180786	1.76942	0
1470.641479	1.769039	0
1474.103027	1.768657	0
1477.565186	1.768275	0
1481.027954	1.767891	0
1484.491455	1.767507	0
1487.955566	1.767121	0
1491.42041	1.766735	0
1494.885986	1.766348	0
1498.352051	1.76596	0
1501.81897	1.765571	0
1505.286377	1.765182	0
1508.754639	1.764791	0
1512.223389	1.7644	0
1515.692993	1.764007	0
1519.163208	1.763614	0
1522.634033	1.76322	0
1526.105591	1.762825	0
1529.577881	1.762429	0
1533.050659	1.762033	0
1536.52417	1.761635	0
1539.998413	1.761236	0
1543.473389	1.760837	0
1546.948975	1.760437	0
1550.425171	1.760035	0
1553.9021	1.759633	0
1557.379639	1.75923	0
1560.85791	1.758826	0
1564.336792	1.758421	0
1567.816528	1.758015	0
1571.296753	1.757609	0
1574.777588	1.757201	0
1578.259277	1.756792	0
1581.741577	1.756383	0
1585.224487	1.755972	0
1588.708252	1.755561	0
1592.192505	1.755149	0
1595.67749	1.754735	0
1599.163086	1.754321	0
1602.649414	1.753906	0
1606.136475	1.75349	0
1609.624023	1.753073	0
1613.112427	1.752655	0
1616.601318	1.752236	0
1620.091064	1.751816	0
1623.581299	1.751395	0
1627.072388	1.750974	0
1630.564087	1.750551	0
1634.056396	1.750127	0
1637.549561	1.749703	0
1641.043213	1.749277	0
1644.537476	1.74885	0
1648.032593	1.748423	0
1651.52832	1.747994	0
1655.024658	1.747565	0
1658.521729	1.747135	0
1662.019531	1.746703	0
1665.517944	1.746271	0
1669.016968	1.745837	0
1672.516846	1.745403	0
1676.017212	1.744968	0
1679.518188	1.744532	0
1683.019897	1.744094	0
